turn       pressure        volume          temperature
0      0.117489880445      167551.533183      1.19966227214      
1      0.118580615961      167551.394058      1.19938793945      
2      0.119566818946      167551.18537      1.1991578776      
3      0.120502058858      167550.907119      1.19894856771      
4      0.121450821295      167550.489744      1.19873234049      
5      0.122465681886      167550.002807      1.19848990885      
6      0.123517787667      167549.376747      1.19822338867      
7      0.1245600472      167548.750688      1.19794970703      
8      0.125569391243      167548.055069      1.1976891276      
9      0.126501652239      167547.220328      1.19746004232      
10      0.127318653064      167546.316029      1.19727888997      
11      0.128000081819      167545.342172      1.19715755208      
12      0.128493119028      167544.229198      1.19711751302      
13      0.128741200959      167543.116228      1.19719091797      
14      0.128687214258      167541.933703      1.19740673828      
15      0.128293883946      167540.612064      1.19777921549      
16      0.127615548971      167539.220873      1.1982894694      
17      0.126777180317      167537.76013      1.19888655599      
18      0.125906139574      167536.229838      1.19951310221      
19      0.125071813513      167534.629996      1.2001344401      
20      0.124311694869      167532.960607      1.20074650065      
21      0.123575055162      167531.152115      1.20136279297      
22      0.122856508107      167529.27408      1.20198999023      
23      0.122199217062      167527.326502      1.20261173503      
24      0.121687176627      167525.309383      1.2031891276      
25      0.121448214672      167523.222726      1.20367374674      
26      0.121573532821      167520.996978      1.20401822917      
27      0.122103219134      167518.701696      1.20420328776      
28      0.123021422847      167516.336881      1.20424039714      
29      0.124226700479      167513.902537      1.20416341146      
30      0.12564039877      167511.398664      1.20401196289      
31      0.127166386162      167508.755715      1.20382584635      
32      0.128701044095      167506.043243      1.20364729818      
33      0.130125553534      167503.26125      1.20351944987      
34      0.131341348115      167500.40974      1.20348225911      
35      0.132271420619      167497.488715      1.20357519531      
36      0.132853056369      167494.498176      1.20381738281      
37      0.133147913407      167491.438127      1.20417773437      
38      0.133319314936      167488.239025      1.20458902995      
39      0.133496308158      167484.970419      1.20499267578      
40      0.1336880176      167481.701855      1.20537955729      
41      0.133864651979      167478.363792      1.20576977539      
42      0.133987604054      167474.956231      1.20617529297      
43      0.134121123289      167471.409636      1.20657430013      
44      0.134365758193      167467.79355      1.20691552734      
45      0.134825375674      167464.107978      1.20714436849      
46      0.135575691532      167460.422461      1.20723111979      
47      0.136586326544      167456.667461      1.20717456055      
48      0.137812960999      167452.773446      1.20700097656      
49      0.139121277485      167448.809957      1.2067512207      
50      0.140416843886      167444.776997      1.20646728516      
51      0.14162143065      167440.67457      1.20617960612      
52      0.14266166639      167436.57221      1.20590592448      
53      0.143522843267      167432.400387      1.20565242513      
54      0.14417735642      167428.159105      1.20542749023      
55      0.144599108463      167423.848367      1.20524715169      
56      0.144719329922      167419.468177      1.20513468424      
57      0.144508020441      167415.018538      1.20510685221      
58      0.143968779836      167410.499454      1.2051644694      
59      0.143145208774      167405.980452      1.20528792318      
60      0.142134484832      167401.392009      1.20544091797      
61      0.141082034624      167396.734131      1.20556347656      
62      0.140212189656      167392.00682      1.2055616862      
63      0.139733980087      167387.210082      1.20533959961      
64      0.139794992814      167382.343918      1.20484342448      
65      0.140358325692      167377.408335      1.20408886719      
66      0.14129036729      167372.472848      1.20314322917      
67      0.142418780731      167367.467947      1.20208870443      
68      0.143588798496      167362.393635      1.20099934896      
69      0.144644789315      167357.249917      1.19994506836      
70      0.14545943727      167352.036796      1.19899161784      
71      0.145897633457      167346.754278      1.19820320638      
72      0.145870826078      167341.402366      1.19762687174      
73      0.145319636718      167336.050568      1.19728393555      
74      0.144289281326      167330.629383      1.19716373698      
75      0.142859833121      167325.138814      1.19722753906      
76      0.141180523461      167319.578868      1.19742480469      
77      0.139355252144      167313.949547      1.19770458984      
78      0.137504208798      167308.250857      1.19801432292      
79      0.135753799482      167302.482803      1.19830232747      
80      0.134232746193      167296.645389      1.1985230306      
81      0.132972970179      167290.73862      1.19865714518      
82      0.13196163914      167284.762502      1.19871598307      
83      0.131117215361      167278.717038      1.19873632813      
84      0.130351088251      167272.602235      1.19876171875      
85      0.129617193479      167266.418097      1.1988112793      
86      0.128921792554      167260.164629      1.19887679036      
87      0.128322380982      167253.841836      1.19893847656      
88      0.127856113653      167247.449724      1.19897501628      
89      0.127583017134      167240.988299      1.19895727539      
90      0.127563551856      167234.457564      1.19885172526      
91      0.127855241425      167227.857527      1.19863452148      
92      0.128437360347      167221.188192      1.19830818685      
93      0.129222450514      167214.449565      1.19791357422      
94      0.130066480776      167207.641651      1.19751407878      
95      0.130813140777      167200.764456      1.19716748047      
96      0.131382721807      167193.817986      1.19691105143      
97      0.131729214438      167186.802247      1.19676171875      
98      0.131832615512      167179.717244      1.19673177083      
99      0.131653008749      167172.562984      1.19683642578      
100      0.131156602498      167165.339472      1.19708959961      
101      0.130389045173      167158.046714      1.19747802734      
102      0.129456635498      167150.684716      1.1979469401      
103      0.128559571406      167143.253485      1.19841219076      
104      0.127875052427      167135.753026      1.19880175781      
105      0.127439275676      167128.252792      1.19909261068      
106      0.127194642818      167120.683338      1.19931469727      
107      0.127024477267      167112.975231      1.19951733398      
108      0.126872794923      167105.197921      1.19973006185      
109      0.126732035867      167097.351416      1.19996232096      
110      0.126580319447      167089.435721      1.20021785482      
111      0.126404710575      167081.520276      1.20050048828      
112      0.126255162476      167073.535651      1.20078873698      
113      0.12626233482      167065.481852      1.20102734375      
114      0.126515396892      167057.358886      1.20117016602      
115      0.127045676203      167049.16676      1.20121297201      
116      0.127763770688      167040.90548      1.20119018555      
117      0.128595578676      167032.575053      1.20113696289      
118      0.129479420653      167024.244904      1.20106770833      
119      0.130445333873      167015.845617      1.20097965495      
120      0.13146191523      167007.377199      1.20087744141      
121      0.132469960259      166998.839658      1.20078417969      
122      0.133383392398      166990.233      1.20073632813      
123      0.134110814453      166981.557233      1.20077124023      
124      0.134578109335      166972.812365      1.20091658529      
125      0.134764966263      166964.067801      1.20118416341      
126      0.134683557414      166955.323543      1.20156404622      
127      0.134403024821      166946.510195      1.20202351888      
128      0.134029039789      166937.627764      1.20251236979      
129      0.133715856994      166928.676259      1.20296777344      
130      0.133596770951      166919.655685      1.20332779948      
131      0.133776965217      166910.635436      1.20354280599      
132      0.134302948123      166901.54613      1.20359472656      
133      0.135121655081      166892.387773      1.20349593099      
134      0.136170340658      166883.229751      1.20328076172      
135      0.137330596364      166874.072065      1.20299145508      
136      0.138522756535      166864.84534      1.20266007487      
137      0.13968145163      166855.549586      1.20231640625      
138      0.140738947534      166846.254177      1.20199007161      
139      0.141612708495      166836.889749      1.20170751953      
140      0.142301621004      166827.525671      1.20147810872      
141      0.142820800876      166818.092583      1.20128971354      
142      0.143245057913      166808.659852      1.2011089681      
143      0.143692336074      166799.158121      1.20088883464      
144      0.144249178122      166789.656751      1.20058520508      
145      0.14498863867      166780.086393      1.20017073568      
146      0.145918610276      166770.516401      1.19964127604      
147      0.146990577205      166760.946775      1.1990172526      
148      0.148112083148      166751.377516      1.19833959961      
149      0.149184236557      166741.808622      1.19766015625      
150      0.150071211048      166732.240095      1.19703548177      
151      0.150642473171      166722.671933      1.19652897135      
152      0.150751062939      166713.034807      1.19620670573      
153      0.150278105909      166703.398053      1.19612508138      
154      0.149181337797      166693.761669      1.19630704753      
155      0.147537826663      166684.125657      1.19672249349      
156      0.145530722556      166674.490017      1.19729825846      
157      0.143370528129      166664.785431      1.19794702148      
158      0.141252258946      166655.081221      1.19858194987      
159      0.139358990611      166645.377388      1.19913590495      
160      0.137774467577      166635.604623      1.19956632487      
161      0.136556241797      166625.83224      1.19985270182      
162      0.13572620987      166616.060239      1.19998738607      
163      0.135253867387      166606.219319      1.19997973633      
164      0.135062793821      166596.378787      1.19986474609      
165      0.135041335812      166586.538642      1.19969278971      
166      0.135078744878      166576.629592      1.19950292969      
167      0.135153549894      166566.720934      1.19931266276      
168      0.135250584542      166556.81267      1.19911580404      
169      0.135416805438      166546.904799      1.19889534505      
170      0.1356866278      166536.928039      1.19863509115      
171      0.136054145389      166526.951677      1.19832324219      
172      0.136535090061      166516.975714      1.19796394857      
173      0.137027772606      166507.00015      1.1975855306      
174      0.13743604037      166497.024983      1.19724186198      
175      0.137607583523      166487.050215      1.19698990885      
176      0.137463744305      166477.075846      1.19686214193      
177      0.137037187217      166467.101875      1.19685717773      
178      0.136375051283      166457.128302      1.19694986979      
179      0.135564484399      166447.155128      1.19710335286      
180      0.134691766226      166437.182352      1.1972824707      
181      0.13384683988      166427.209974      1.19744938151      
182      0.133119713551      166417.168746      1.19756665039      
183      0.132572198055      166407.127922      1.19761360677      
184      0.132160448766      166397.087502      1.19760351563      
185      0.131793236985      166387.047486      1.19757584635      
186      0.131416827626      166377.007874      1.19756062826      
187      0.13103305951      166366.968666      1.19755940755      
188      0.130681542812      166356.929861      1.19755525716      
189      0.130383223086      166346.89146      1.19753776042      
190      0.130130087158      166336.784237      1.1975148112      
191      0.129858927229      166326.677424      1.19751554362      
192      0.129500676468      166316.57102      1.19757739258      
193      0.128986639313      166306.465025      1.19772973633      
194      0.128348608053      166296.35944      1.19796598307      
195      0.127678789868      166286.254264      1.19824023438      
196      0.127148980508      166276.149497      1.19848958333      
197      0.126856771751      166266.04514      1.19865991211      
198      0.126884503498      166255.941192      1.19871858724      
199      0.127240003736      166245.837653      1.1986628418      
200      0.127864605926      166235.734524      1.19851676432      
201      0.12865893245      166225.631804      1.19832267253      
202      0.129491227222      166215.529494      1.19813256836      
203      0.130234125413      166205.427592      1.19800252279      
204      0.130759604748      166195.3261      1.19798567708      
205      0.131010636287      166185.225018      1.19811409505      
206      0.130956818146      166175.124345      1.19839526367      
207      0.130672487185      166165.024081      1.19880273438      
208      0.130297637324      166154.924226      1.19928214518      
209      0.129945300296      166144.82478      1.19977075195      
210      0.129760406342      166134.794914      1.20021337891      
211      0.12982370335      166124.765452      1.20057747396      
212      0.13015950415      166114.736393      1.20085799154      
213      0.130698875518      166104.707738      1.20107552083      
214      0.131357897635      166094.679486      1.20126546224      
215      0.13205788552      166084.651638      1.20145629883      
216      0.132756302325      166074.624194      1.20166625977      
217      0.133396072445      166064.666304      1.20191316732      
218      0.133978878634      166054.708812      1.20220621745      
219      0.13450515599      166044.751718      1.20252978516      
220      0.135076981385      166034.795022      1.20283764648      
221      0.135806964455      166024.907864      1.20307405599      
222      0.136743372517      166015.021098      1.20321370443      
223      0.137834649762      166005.134725      1.20327539062      
224      0.138959485788      165995.248744      1.20330582682      
225      0.140022564739      165985.363156      1.20334749349      
226      0.140921490343      165975.47796      1.20343579102      
227      0.141595264006      165965.66228      1.20360286458      
228      0.142004201544      165955.846987      1.20386385091      
229      0.142165913363      165946.101199      1.20420060221      
230      0.142216998499      165936.355792      1.20455102539      
231      0.142339375284      165926.679879      1.20483390299      
232      0.142665490627      165917.004342      1.2049930013      
233      0.143173562033      165907.398288      1.20502555339      
234      0.143771750535      165897.792605      1.20497119141      
235      0.144334426439      165888.256395      1.20488305664      
236      0.144775578694      165878.72055      1.20480289714      
237      0.145002545931      165869.254166      1.20476269531      
238      0.144959638661      165859.788143      1.20478833008      
239      0.144590812346      165850.391571      1.20489713542      
240      0.143910100379      165840.995354      1.20509643555      
241      0.142888684825      165831.599492      1.20538590495      
242      0.14162203663      165822.203985      1.20573665365      
243      0.140251507905      165812.808833      1.20608121745      
244      0.13894558094      165803.483114      1.20634505208      
245      0.137823828858      165794.157744      1.20647802734      
246      0.136913160131      165784.901797      1.20647265625      
247      0.136155282414      165775.646195      1.20635424805      
248      0.135471174969      165766.390936      1.20615893555      
249      0.134799917412      165757.205088      1.20591145833      
250      0.134142285954      165748.019579      1.20561735026      
251      0.133519023325      165738.83441      1.20527067057      
252      0.132968683248      165729.649579      1.20485782878      
253      0.132527709961      165720.534144      1.20437109375      
254      0.132138378236      165711.419042      1.20382478841      
255      0.131742321139      165702.304275      1.20326147461      
256      0.131257911051      165693.189842      1.20272802734      
257      0.130648725903      165684.144788      1.20225048828      
258      0.129944364945      165675.100063      1.20183121745      
259      0.12914967874      165666.055667      1.20146622721      
260      0.128303091852      165657.011601      1.20115828451      
261      0.12742034831      165647.967864      1.20090226237      
262      0.126587582149      165638.993488      1.20067049154      
263      0.125905401041      165630.019436      1.20041837565      
264      0.125489284477      165621.045709      1.2001015625      
265      0.125407016818      165612.072306      1.19969287109      
266      0.125667615754      165603.099227      1.19919230143      
267      0.126189812994      165594.126472      1.19862874349      
268      0.126875899391      165585.154041      1.19804703776      
269      0.127619498426      165576.181934      1.19749169922      
270      0.128306869069      165567.210151      1.19700764974      
271      0.128819224328      165558.238693      1.19664550781      
272      0.129091985112      165549.267558      1.19642862956      
273      0.129223445311      165540.296748      1.19630712891      
274      0.129429741947      165531.326261      1.19618839518      
275      0.129835933231      165522.356099      1.19601057943      
276      0.130400608637      165513.386261      1.19578255208      
277      0.13100219707      165504.485742      1.1955550944      
278      0.131556781755      165495.585542      1.19536954753      
279      0.132019651379      165486.685661      1.19523673503      
280      0.132398143671      165477.786099      1.19515250651      
281      0.132667340824      165468.886856      1.19512280273      
282      0.132779869957      165459.987933      1.19516870117      
283      0.132640196997      165451.158308      1.19532413737      
284      0.132197344574      165442.328998      1.19561946615      
285      0.131423527681      165433.500002      1.19606363932      
286      0.130413587982      165424.67132      1.19662801107      
287      0.129270353423      165415.842952      1.19725935872      
288      0.128118746979      165407.014898      1.19790152995      
289      0.127083970212      165398.187158      1.19850976562      
290      0.126193580561      165389.428695      1.19906013997      
291      0.125498782181      165380.670542      1.19954484049      
292      0.12499134684      165371.912698      1.19996549479      
293      0.124649107208      165363.155163      1.20033219401      
294      0.124461108567      165354.397937      1.20065511068      
295      0.124430127634      165345.64102      1.20093001302      
